,0
0,351.291
1,357.125
2,362.954
3,368.776
4,374.592
5,380.402
6,386.205
7,392.002
8,397.793
9,403.578
10,409.356
11,415.128
12,420.894
13,426.654
14,432.408
15,438.155
16,443.896
17,449.631
18,455.36
19,461.083
20,466.8
21,472.51
22,478.215
23,483.913
24,489.605
25,495.292
26,500.972
27,506.646
28,512.314
29,517.976
30,523.631
31,529.281
32,534.925
33,540.563
34,546.195
35,551.821
36,557.441
37,563.055
38,568.663
39,574.265
40,579.861
41,585.451
42,591.035
43,596.613
44,602.186
45,607.752
46,613.313
47,618.868
48,624.417
49,629.96
50,635.497
51,641.028
52,646.554
53,652.074
54,657.587
55,663.096
56,668.598
57,674.094
58,679.585
59,685.07
60,690.549
61,696.023
62,701.49
63,706.952
64,712.409
65,717.859
66,723.304
67,728.743
68,734.177
69,739.605
70,745.027
71,750.443
72,755.854
73,761.259
74,766.659
75,772.053
76,777.441
77,782.824
78,788.201
79,793.572
80,798.938
81,804.298
82,809.653
83,815.002
84,820.346
85,825.684
86,831.017
87,836.344
88,841.665
89,846.981
90,852.292
91,857.597
92,862.896
93,868.191
94,873.479
95,878.762
96,884.04
97,889.312
98,894.579
99,899.841
100,905.097
101,910.347
102,915.592
103,920.832
104,926.067
105,931.296
106,936.519
107,941.738
108,946.951
109,952.158
110,957.361
111,962.558
112,967.749
113,972.936
114,978.117
115,983.292
116,988.463
117,993.628
118,998.788
119,1003.943
120,1009.092
121,1014.236
122,1019.375
123,1024.509
124,1029.637
125,1034.76
126,1039.878
127,1044.991
128,1050.099
129,1055.201
130,1060.299
131,1065.391
132,1070.478
133,1075.56
134,1080.636
135,1085.708
136,1090.774
137,1095.835
138,1100.891
139,1105.942
140,1110.988
141,1116.029
142,1121.065
143,1126.096
144,1131.121
145,1136.142
146,1141.157
147,1146.168
148,1151.173
149,1156.174
150,1161.169
151,1166.159
152,1171.145
153,1176.125
154,1181.1
155,1186.071
156,1191.036
157,1195.996
158,1200.952
159,1205.902
160,1210.848
161,1215.788
162,1220.724
163,1225.654
164,1230.58
165,1235.501
166,1240.417
167,1245.328
168,1250.234
169,1255.135
170,1260.032
171,1264.923
172,1269.81
173,1274.692
174,1279.569
175,1284.441
176,1289.308
177,1294.17
178,1299.028
179,1303.881
180,1308.729
181,1313.572
182,1318.41
183,1323.244
184,1328.073
185,1332.897
186,1337.716
187,1342.531
188,1347.34
189,1352.145
190,1356.946
191,1361.741
192,1366.532
193,1371.318
194,1376.099
195,1380.876
196,1385.648
197,1390.415
198,1395.178
199,1399.936
200,1404.689
201,1409.438
202,1414.182
203,1418.921
204,1423.655
205,1428.385
206,1433.111
207,1437.832
208,1442.548
209,1447.259
210,1451.966
211,1456.668
212,1461.366
213,1466.059
214,1470.748
215,1475.432
216,1480.111
217,1484.786
218,1489.456
219,1494.122
220,1498.783
221,1503.44
222,1508.092
223,1512.74
224,1517.383
225,1522.021
226,1526.656
227,1531.285
228,1535.91
229,1540.531
230,1545.147
231,1549.759
232,1554.366
233,1558.969
234,1563.567
235,1568.161
236,1572.751
237,1577.336
238,1581.916
239,1586.492
240,1591.064
241,1595.632
242,1600.195
243,1604.753
244,1609.307
245,1613.857
246,1618.402
247,1622.944
248,1627.48
249,1632.013
250,1636.541
251,1641.064
252,1645.584
253,1650.099
254,1654.609
255,1659.115
256,1663.618
257,1668.115
258,1672.609
259,1677.098
260,1681.583
261,1686.063
262,1690.539
263,1695.011
264,1699.479
265,1703.943
266,1708.402
267,1712.857
268,1717.307
269,1721.754
270,1726.196
271,1730.634
272,1735.068
273,1739.498
274,1743.923
275,1748.344
276,1752.761
277,1757.174
278,1761.583
279,1765.987
280,1770.387
281,1774.783
282,1779.175
283,1783.563
284,1787.947
285,1792.326
286,1796.702
287,1801.073
288,1805.44
289,1809.803
290,1814.162
291,1818.517
292,1822.867
293,1827.214
294,1831.556
295,1835.895
296,1840.229
297,1844.559
298,1848.886
299,1853.208
300,1857.526
301,1861.84
302,1866.15
303,1870.456
304,1874.757
305,1879.055
306,1883.349
307,1887.639
308,1891.925
309,1896.206
310,1900.484
311,1904.758
312,1909.028
313,1913.294
314,1917.555
315,1921.813
316,1926.067
317,1930.317
318,1934.563
319,1938.805
320,1943.043
321,1947.277
322,1951.507
323,1955.733
324,1959.956
325,1964.174
326,1968.389
327,1972.599
328,1976.806
329,1981.009
330,1985.207
331,1989.402
332,1993.593
333,1997.781
334,2001.964
335,2006.143
336,2010.319
337,2014.491
338,2018.659
339,2022.823
340,2026.983
341,2031.139
342,2035.292
343,2039.44
344,2043.585
345,2047.726
346,2051.864
347,2055.997
348,2060.127
349,2064.253
350,2068.375
351,2072.493
352,2076.607
353,2080.718
354,2084.825
355,2088.928
356,2093.028
357,2097.123
358,2101.215
359,2105.303
360,2109.388
361,2113.468
362,2117.545
363,2121.619
364,2125.688
365,2129.754
366,2133.816
367,2137.874
368,2141.929
369,2145.98
370,2150.027
371,2154.071
372,2158.111
373,2162.147
374,2166.18
375,2170.208
376,2174.234
377,2178.255
378,2182.273
379,2186.287
380,2190.298
381,2194.305
382,2198.308
383,2202.308
384,2206.304
385,2210.297
386,2214.286
387,2218.271
388,2222.253
389,2226.231
390,2230.205
391,2234.176
392,2238.143
393,2242.107
394,2246.067
395,2250.024
396,2253.977
397,2257.926
398,2261.872
399,2265.814
400,2269.753
401,2273.689
402,2277.62
403,2281.548
404,2285.473
405,2289.394
406,2293.312
407,2297.226
408,2301.136
409,2305.044
410,2308.947
411,2312.847
412,2316.744
413,2320.637
414,2324.526
415,2328.413
416,2332.295
417,2336.174
418,2340.05
419,2343.922
420,2347.791
421,2351.657
422,2355.518
423,2359.377
424,2363.232
425,2367.084
426,2370.932
427,2374.776
428,2378.618
429,2382.456
430,2386.29
431,2390.121
432,2393.949
433,2397.773
434,2401.594
435,2405.412
436,2409.226
437,2413.036
438,2416.844
439,2420.648
440,2424.448
441,2428.246
442,2432.04
443,2435.83
444,2439.617
445,2443.401
446,2447.182
447,2450.959
448,2454.733
449,2458.503
450,2462.27
451,2466.034
452,2469.795
453,2473.552
454,2477.306
455,2481.057
456,2484.804
457,2488.548
458,2492.289
459,2496.026
460,2499.76
461,2503.491
462,2507.219
463,2510.943
464,2514.664
465,2518.382
466,2522.097
467,2525.808
468,2529.516
469,2533.221
470,2536.923
471,2540.621
472,2544.316
473,2548.008
474,2551.697
475,2555.382
476,2559.064
477,2562.743
478,2566.419
479,2570.092
480,2573.761
481,2577.427
482,2581.09
483,2584.75
484,2588.407
485,2592.06
486,2595.711
487,2599.358
488,2603.002
489,2606.642
490,2610.28
491,2613.915
492,2617.546
493,2621.174
494,2624.799
495,2628.421
496,2632.04
497,2635.655
498,2639.268
499,2642.877
500,2646.484
501,2650.087
502,2653.687
503,2657.284
504,2660.877
505,2664.468
506,2668.056
507,2671.64
508,2675.222
509,2678.8
510,2682.375
511,2685.948
512,2689.517
513,2693.083
514,2696.646
515,2700.206
516,2703.763
517,2707.316
518,2710.867
519,2714.415
520,2717.96
521,2721.501
522,2725.04
523,2728.575
524,2732.108
525,2735.638
526,2739.164
527,2742.688
528,2746.208
529,2749.726
530,2753.24
531,2756.751
532,2760.26
533,2763.765
534,2767.268
535,2770.767
536,2774.264
537,2777.757
538,2781.248
539,2784.736
540,2788.22
541,2791.702
542,2795.181
543,2798.656
544,2802.129
545,2805.599
546,2809.066
547,2812.53
548,2815.991
549,2819.449
550,2822.904
551,2826.356
552,2829.806
553,2833.252
554,2836.695
555,2840.136
556,2843.574
557,2847.008
558,2850.44
559,2853.869
560,2857.295
561,2860.718
562,2864.138
563,2867.556
564,2870.97
565,2874.382
566,2877.791
567,2881.197
568,2884.6
569,2888.0
570,2891.397
571,2894.791
572,2898.183
573,2901.572
574,2904.957
575,2908.34
576,2911.721
577,2915.098
578,2918.473
579,2921.844
580,2925.213
581,2928.579
582,2931.942
583,2935.303
584,2938.66
585,2942.015
586,2945.367
587,2948.716
588,2952.063
589,2955.406
590,2958.747
591,2962.085
592,2965.42
593,2968.753
594,2972.082
595,2975.409
596,2978.733
597,2982.055
598,2985.373
599,2988.689
600,2992.002
601,2995.312
602,2998.62
603,3001.925
604,3005.227
605,3008.526
606,3011.823
607,3015.117
608,3018.408
609,3021.696
610,3024.982
611,3028.265
612,3031.545
613,3034.822
614,3038.097
615,3041.369
616,3044.639
617,3047.905
618,3051.169
619,3054.431
620,3057.689
621,3060.945
622,3064.198
623,3067.449
624,3070.697
625,3073.942
626,3077.184
627,3080.424
628,3083.661
629,3086.896
630,3090.128
631,3093.357
632,3096.583
633,3099.807
634,3103.029
635,3106.247
636,3109.463
637,3112.676
638,3115.887
639,3119.095
640,3122.3
641,3125.503
642,3128.703
643,3131.901
644,3135.096
645,3138.288
646,3141.478
647,3144.665
648,3147.849
649,3151.031
650,3154.211
651,3157.387
652,3160.561
653,3163.733
654,3166.902
655,3170.068
656,3173.232
657,3176.393
658,3179.552
659,3182.708
660,3185.861
661,3189.012
662,3192.161
663,3195.306
664,3198.45
665,3201.59
666,3204.728
667,3207.864
668,3210.997
669,3214.127
670,3217.255
671,3220.381
672,3223.504
673,3226.624
674,3229.742
675,3232.857
676,3235.97
677,3239.08
678,3242.188
679,3245.293
680,3248.396
681,3251.496
682,3254.594
683,3257.689
684,3260.782
685,3263.872
686,3266.96
687,3270.045
688,3273.128
689,3276.209
690,3279.286
691,3282.362
692,3285.435
693,3288.505
694,3291.573
695,3294.638
696,3297.701
697,3300.762
698,3303.82
699,3306.876
700,3309.929
701,3312.98
702,3316.028
703,3319.074
704,3322.117
705,3325.158
706,3328.197
707,3331.233
708,3334.267
709,3337.298
710,3340.327
711,3343.353
712,3346.377
713,3349.399
714,3352.418
715,3355.435
716,3358.449
717,3361.461
718,3364.471
719,3367.478
720,3370.482
721,3373.485
722,3376.485
723,3379.482
724,3382.478
725,3385.471
726,3388.461
727,3391.449
728,3394.435
729,3397.418
730,3400.399
731,3403.378
732,3406.354
733,3409.328
734,3412.299
735,3415.269
736,3418.235
737,3421.2
738,3424.162
739,3427.122
740,3430.079
741,3433.034
742,3435.987
743,3438.938
744,3441.886
745,3444.832
746,3447.775
747,3450.716
748,3453.655
749,3456.592
750,3459.526
751,3462.458
752,3465.387
753,3468.314
754,3471.239
755,3474.162
756,3477.082
757,3480.001
758,3482.916
759,3485.83
760,3488.741
761,3491.65
762,3494.557
763,3497.461
764,3500.363
765,3503.263
766,3506.16
767,3509.056
768,3511.949
769,3514.839
770,3517.728
771,3520.614
772,3523.498
773,3526.38
774,3529.259
775,3532.136
776,3535.011
777,3537.884
778,3540.754
779,3543.623
780,3546.489
781,3549.352
782,3552.214
783,3555.073
784,3557.93
785,3560.785
786,3563.638
787,3566.488
788,3569.336
789,3572.182
790,3575.026
791,3577.867
792,3580.707
793,3583.544
794,3586.379
795,3589.212
796,3592.042
797,3594.87
798,3597.697
799,3600.521
800,3603.342
801,3606.162
802,3608.979
803,3611.795
804,3614.608
805,3617.419
806,3620.227
807,3623.034
808,3625.838
809,3628.64
810,3631.44
811,3634.238
812,3637.034
813,3639.827
814,3642.619
815,3645.408
816,3648.195
817,3650.98
818,3653.763
819,3656.544
820,3659.322
821,3662.099
822,3664.873
823,3667.645
824,3670.415
825,3673.183
826,3675.949
827,3678.712
828,3681.474
829,3684.233
830,3686.99
831,3689.746
832,3692.499
833,3695.25
834,3697.998
835,3700.745
836,3703.49
837,3706.232
838,3708.973
839,3711.711
840,3714.447
841,3717.181
842,3719.913
843,3722.643
844,3725.371
845,3728.097
846,3730.821
847,3733.543
848,3736.262
849,3738.98
850,3741.695
851,3744.408
852,3747.12
853,3749.829
854,3752.536
855,3755.241
856,3757.944
857,3760.645
858,3763.344
859,3766.041
860,3768.736
861,3771.429
862,3774.12
863,3776.808
864,3779.495
865,3782.18
866,3784.862
867,3787.543
868,3790.222
869,3792.898
870,3795.573
871,3798.245
872,3800.916
873,3803.584
874,3806.251
875,3808.915
876,3811.577
877,3814.238
878,3816.896
879,3819.553
880,3822.207
881,3824.859
882,3827.51
883,3830.158
884,3832.804
885,3835.449
886,3838.091
887,3840.732
888,3843.37
889,3846.007
890,3848.641
891,3851.274
892,3853.904
893,3856.533
894,3859.159
895,3861.784
896,3864.406
897,3867.027
898,3869.646
899,3872.262
900,3874.877
901,3877.49
902,3880.101
903,3882.71
904,3885.317
905,3887.922
906,3890.525
907,3893.126
908,3895.725
909,3898.322
910,3900.917
911,3903.511
912,3906.102
913,3908.692
914,3911.279
915,3913.865
916,3916.448
917,3919.03
918,3921.61
919,3924.188
920,3926.764
921,3929.338
922,3931.91
923,3934.48
924,3937.049
925,3939.615
926,3942.18
927,3944.742
928,3947.303
929,3949.862
930,3952.419
931,3954.974
932,3957.527
933,3960.078
934,3962.627
935,3965.175
936,3967.72
937,3970.264
938,3972.806
939,3975.346
940,3977.884
941,3980.42
942,3982.954
943,3985.487
944,3988.017
945,3990.546
946,3993.073
947,3995.598
948,3998.121
949,4000.642
,0
0,351.291
1,357.125
2,362.954
3,368.776
4,374.592
5,380.402
6,386.205
7,392.002
8,397.793
9,403.578
10,409.356
11,415.128
12,420.894
13,426.654
14,432.408
15,438.155
16,443.896
17,449.631
18,455.36
19,461.083
20,466.8
21,472.51
22,478.215
23,483.913
24,489.605
25,495.292
26,500.972
27,506.646
28,512.314
29,517.976
30,523.631
31,529.281
32,534.925
33,540.563
34,546.195
35,551.821
36,557.441
37,563.055
38,568.663
39,574.265
40,579.861
41,585.451
42,591.035
43,596.613
44,602.186
45,607.752
46,613.313
47,618.868
48,624.417
49,629.96
50,635.497
51,641.028
52,646.554
53,652.074
54,657.587
55,663.096
56,668.598
57,674.094
58,679.585
59,685.07
60,690.549
61,696.023
62,701.49
63,706.952
64,712.409
65,717.859
66,723.304
67,728.743
68,734.177
69,739.605
70,745.027
71,750.443
72,755.854
73,761.259
74,766.659
75,772.053
76,777.441
77,782.824
78,788.201
79,793.572
80,798.938
81,804.298
82,809.653
83,815.002
84,820.346
85,825.684
86,831.017
87,836.344
88,841.665
89,846.981
90,852.292
91,857.597
92,862.896
93,868.191
94,873.479
95,878.762
96,884.04
97,889.312
98,894.579
99,899.841
100,905.097
101,910.347
102,915.592
103,920.832
104,926.067
105,931.296
106,936.519
107,941.738
108,946.951
109,952.158
110,957.361
111,962.558
112,967.749
113,972.936
114,978.117
115,983.292
116,988.463
117,993.628
118,998.788
119,1003.943
120,1009.092
121,1014.236
122,1019.375
123,1024.509
124,1029.637
125,1034.76
126,1039.878
127,1044.991
128,1050.099
129,1055.201
130,1060.299
131,1065.391
132,1070.478
133,1075.56
134,1080.636
135,1085.708
136,1090.774
137,1095.835
138,1100.891
139,1105.942
140,1110.988
141,1116.029
142,1121.065
143,1126.096
144,1131.121
145,1136.142
146,1141.157
147,1146.168
148,1151.173
149,1156.174
150,1161.169
151,1166.159
152,1171.145
153,1176.125
154,1181.1
155,1186.071
156,1191.036
157,1195.996
158,1200.952
159,1205.902
160,1210.848
161,1215.788
162,1220.724
163,1225.654
164,1230.58
165,1235.501
166,1240.417
167,1245.328
168,1250.234
169,1255.135
170,1260.032
171,1264.923
172,1269.81
173,1274.692
174,1279.569
175,1284.441
176,1289.308
177,1294.17
178,1299.028
179,1303.881
180,1308.729
181,1313.572
182,1318.41
183,1323.244
184,1328.073
185,1332.897
186,1337.716
187,1342.531
188,1347.34
189,1352.145
190,1356.946
191,1361.741
192,1366.532
193,1371.318
194,1376.099
195,1380.876
196,1385.648
197,1390.415
198,1395.178
199,1399.936
200,1404.689
201,1409.438
202,1414.182
203,1418.921
204,1423.655
205,1428.385
206,1433.111
207,1437.832
208,1442.548
209,1447.259
210,1451.966
211,1456.668
212,1461.366
213,1466.059
214,1470.748
215,1475.432
216,1480.111
217,1484.786
218,1489.456
219,1494.122
220,1498.783
221,1503.44
222,1508.092
223,1512.74
224,1517.383
225,1522.021
226,1526.656
227,1531.285
228,1535.91
229,1540.531
230,1545.147
231,1549.759
232,1554.366
233,1558.969
234,1563.567
235,1568.161
236,1572.751
237,1577.336
238,1581.916
239,1586.492
240,1591.064
241,1595.632
242,1600.195
243,1604.753
244,1609.307
245,1613.857
246,1618.402
247,1622.944
248,1627.48
249,1632.013
250,1636.541
251,1641.064
252,1645.584
253,1650.099
254,1654.609
255,1659.115
256,1663.618
257,1668.115
258,1672.609
259,1677.098
260,1681.583
261,1686.063
262,1690.539
263,1695.011
264,1699.479
265,1703.943
266,1708.402
267,1712.857
268,1717.307
269,1721.754
270,1726.196
271,1730.634
272,1735.068
273,1739.498
274,1743.923
275,1748.344
276,1752.761
277,1757.174
278,1761.583
279,1765.987
280,1770.387
281,1774.783
282,1779.175
283,1783.563
284,1787.947
285,1792.326
286,1796.702
287,1801.073
288,1805.44
289,1809.803
290,1814.162
291,1818.517
292,1822.867
293,1827.214
294,1831.556
295,1835.895
296,1840.229
297,1844.559
298,1848.886
299,1853.208
300,1857.526
301,1861.84
302,1866.15
303,1870.456
304,1874.757
305,1879.055
306,1883.349
307,1887.639
308,1891.925
309,1896.206
310,1900.484
311,1904.758
312,1909.028
313,1913.294
314,1917.555
315,1921.813
316,1926.067
317,1930.317
318,1934.563
319,1938.805
320,1943.043
321,1947.277
322,1951.507
323,1955.733
324,1959.956
325,1964.174
326,1968.389
327,1972.599
328,1976.806
329,1981.009
330,1985.207
331,1989.402
332,1993.593
333,1997.781
334,2001.964
335,2006.143
336,2010.319
337,2014.491
338,2018.659
339,2022.823
340,2026.983
341,2031.139
342,2035.292
343,2039.44
344,2043.585
345,2047.726
346,2051.864
347,2055.997
348,2060.127
349,2064.253
350,2068.375
351,2072.493
352,2076.607
353,2080.718
354,2084.825
355,2088.928
356,2093.028
357,2097.123
358,2101.215
359,2105.303
360,2109.388
361,2113.468
362,2117.545
363,2121.619
364,2125.688
365,2129.754
366,2133.816
367,2137.874
368,2141.929
369,2145.98
370,2150.027
371,2154.071
372,2158.111
373,2162.147
374,2166.18
375,2170.208
376,2174.234
377,2178.255
378,2182.273
379,2186.287
380,2190.298
381,2194.305
382,2198.308
383,2202.308
384,2206.304
385,2210.297
386,2214.286
387,2218.271
388,2222.253
389,2226.231
390,2230.205
391,2234.176
392,2238.143
393,2242.107
394,2246.067
395,2250.024
396,2253.977
397,2257.926
398,2261.872
399,2265.814
400,2269.753
401,2273.689
402,2277.62
403,2281.548
404,2285.473
405,2289.394
406,2293.312
407,2297.226
408,2301.136
409,2305.044
410,2308.947
411,2312.847
412,2316.744
413,2320.637
414,2324.526
415,2328.413
416,2332.295
417,2336.174
418,2340.05
419,2343.922
420,2347.791
421,2351.657
422,2355.518
423,2359.377
424,2363.232
425,2367.084
426,2370.932
427,2374.776
428,2378.618
429,2382.456
430,2386.29
431,2390.121
432,2393.949
433,2397.773
434,2401.594
435,2405.412
436,2409.226
437,2413.036
438,2416.844
439,2420.648
440,2424.448
441,2428.246
442,2432.04
443,2435.83
444,2439.617
445,2443.401
446,2447.182
447,2450.959
448,2454.733
449,2458.503
450,2462.27
451,2466.034
452,2469.795
453,2473.552
454,2477.306
455,2481.057
456,2484.804
457,2488.548
458,2492.289
459,2496.026
460,2499.76
461,2503.491
462,2507.219
463,2510.943
464,2514.664
465,2518.382
466,2522.097
467,2525.808
468,2529.516
469,2533.221
470,2536.923
471,2540.621
472,2544.316
473,2548.008
474,2551.697
475,2555.382
476,2559.064
477,2562.743
478,2566.419
479,2570.092
480,2573.761
481,2577.427
482,2581.09
483,2584.75
484,2588.407
485,2592.06
486,2595.711
487,2599.358
488,2603.002
489,2606.642
490,2610.28
491,2613.915
492,2617.546
493,2621.174
494,2624.799
495,2628.421
496,2632.04
497,2635.655
498,2639.268
499,2642.877
500,2646.484
501,2650.087
502,2653.687
503,2657.284
504,2660.877
505,2664.468
506,2668.056
507,2671.64
508,2675.222
509,2678.8
510,2682.375
511,2685.948
512,2689.517
513,2693.083
514,2696.646
515,2700.206
516,2703.763
517,2707.316
518,2710.867
519,2714.415
520,2717.96
521,2721.501
522,2725.04
523,2728.575
524,2732.108
525,2735.638
526,2739.164
527,2742.688
528,2746.208
529,2749.726
530,2753.24
531,2756.751
532,2760.26
533,2763.765
534,2767.268
535,2770.767
536,2774.264
537,2777.757
538,2781.248
539,2784.736
540,2788.22
541,2791.702
542,2795.181
543,2798.656
544,2802.129
545,2805.599
546,2809.066
547,2812.53
548,2815.991
549,2819.449
550,2822.904
551,2826.356
552,2829.806
553,2833.252
554,2836.695
555,2840.136
556,2843.574
557,2847.008
558,2850.44
559,2853.869
560,2857.295
561,2860.718
562,2864.138
563,2867.556
564,2870.97
565,2874.382
566,2877.791
567,2881.197
568,2884.6
569,2888.0
570,2891.397
571,2894.791
572,2898.183
573,2901.572
574,2904.957
575,2908.34
576,2911.721
577,2915.098
578,2918.473
579,2921.844
580,2925.213
581,2928.579
582,2931.942
583,2935.303
584,2938.66
585,2942.015
586,2945.367
587,2948.716
588,2952.063
589,2955.406
590,2958.747
591,2962.085
592,2965.42
593,2968.753
594,2972.082
595,2975.409
596,2978.733
597,2982.055
598,2985.373
599,2988.689
600,2992.002
601,2995.312
602,2998.62
603,3001.925
604,3005.227
605,3008.526
606,3011.823
607,3015.117
608,3018.408
609,3021.696
610,3024.982
611,3028.265
612,3031.545
613,3034.822
614,3038.097
615,3041.369
616,3044.639
617,3047.905
618,3051.169
619,3054.431
620,3057.689
621,3060.945
622,3064.198
623,3067.449
624,3070.697
625,3073.942
626,3077.184
627,3080.424
628,3083.661
629,3086.896
630,3090.128
631,3093.357
632,3096.583
633,3099.807
634,3103.029
635,3106.247
636,3109.463
637,3112.676
638,3115.887
639,3119.095
640,3122.3
641,3125.503
642,3128.703
643,3131.901
644,3135.096
645,3138.288
646,3141.478
647,3144.665
648,3147.849
649,3151.031
650,3154.211
651,3157.387
652,3160.561
653,3163.733
654,3166.902
655,3170.068
656,3173.232
657,3176.393
658,3179.552
659,3182.708
660,3185.861
661,3189.012
662,3192.161
663,3195.306
664,3198.45
665,3201.59
666,3204.728
667,3207.864
668,3210.997
669,3214.127
670,3217.255
671,3220.381
672,3223.504
673,3226.624
674,3229.742
675,3232.857
676,3235.97
677,3239.08
678,3242.188
679,3245.293
680,3248.396
681,3251.496
682,3254.594
683,3257.689
684,3260.782
685,3263.872
686,3266.96
687,3270.045
688,3273.128
689,3276.209
690,3279.286
691,3282.362
692,3285.435
693,3288.505
694,3291.573
695,3294.638
696,3297.701
697,3300.762
698,3303.82
699,3306.876
700,3309.929
701,3312.98
702,3316.028
703,3319.074
704,3322.117
705,3325.158
706,3328.197
707,3331.233
708,3334.267
709,3337.298
710,3340.327
711,3343.353
712,3346.377
713,3349.399
714,3352.418
715,3355.435
716,3358.449
717,3361.461
718,3364.471
719,3367.478
720,3370.482
721,3373.485
722,3376.485
723,3379.482
724,3382.478
725,3385.471
726,3388.461
727,3391.449
728,3394.435
729,3397.418
730,3400.399
731,3403.378
732,3406.354
733,3409.328
734,3412.299
735,3415.269
736,3418.235
737,3421.2
738,3424.162
739,3427.122
740,3430.079
741,3433.034
742,3435.987
743,3438.938
744,3441.886
745,3444.832
746,3447.775
747,3450.716
748,3453.655
749,3456.592
750,3459.526
751,3462.458
752,3465.387
753,3468.314
754,3471.239
755,3474.162
756,3477.082
757,3480.001
758,3482.916
759,3485.83
760,3488.741
761,3491.65
762,3494.557
763,3497.461
764,3500.363
765,3503.263
766,3506.16
767,3509.056
768,3511.949
769,3514.839
770,3517.728
771,3520.614
772,3523.498
773,3526.38
774,3529.259
775,3532.136
776,3535.011
777,3537.884
778,3540.754
779,3543.623
780,3546.489
781,3549.352
782,3552.214
783,3555.073
784,3557.93
785,3560.785
786,3563.638
787,3566.488
788,3569.336
789,3572.182
790,3575.026
791,3577.867
792,3580.707
793,3583.544
794,3586.379
795,3589.212
796,3592.042
797,3594.87
798,3597.697
799,3600.521
800,3603.342
801,3606.162
802,3608.979
803,3611.795
804,3614.608
805,3617.419
806,3620.227
807,3623.034
808,3625.838
809,3628.64
810,3631.44
811,3634.238
812,3637.034
813,3639.827
814,3642.619
815,3645.408
816,3648.195
817,3650.98
818,3653.763
819,3656.544
820,3659.322
821,3662.099
822,3664.873
823,3667.645
824,3670.415
825,3673.183
826,3675.949
827,3678.712
828,3681.474
829,3684.233
830,3686.99
831,3689.746
832,3692.499
833,3695.25
834,3697.998
835,3700.745
836,3703.49
837,3706.232
838,3708.973
839,3711.711
840,3714.447
841,3717.181
842,3719.913
843,3722.643
844,3725.371
845,3728.097
846,3730.821
847,3733.543
848,3736.262
849,3738.98
850,3741.695
851,3744.408
852,3747.12
853,3749.829
854,3752.536
855,3755.241
856,3757.944
857,3760.645
858,3763.344
859,3766.041
860,3768.736
861,3771.429
862,3774.12
863,3776.808
864,3779.495
865,3782.18
866,3784.862
867,3787.543
868,3790.222
869,3792.898
870,3795.573
871,3798.245
872,3800.916
873,3803.584
874,3806.251
875,3808.915
876,3811.577
877,3814.238
878,3816.896
879,3819.553
880,3822.207
881,3824.859
882,3827.51
883,3830.158
884,3832.804
885,3835.449
886,3838.091
887,3840.732
888,3843.37
889,3846.007
890,3848.641
891,3851.274
892,3853.904
893,3856.533
894,3859.159
895,3861.784
896,3864.406
897,3867.027
898,3869.646
899,3872.262
900,3874.877
901,3877.49
902,3880.101
903,3882.71
904,3885.317
905,3887.922
906,3890.525
907,3893.126
908,3895.725
909,3898.322
910,3900.917
911,3903.511
912,3906.102
913,3908.692
914,3911.279
915,3913.865
916,3916.448
917,3919.03
918,3921.61
919,3924.188
920,3926.764
921,3929.338
922,3931.91
923,3934.48
924,3937.049
925,3939.615
926,3942.18
927,3944.742
928,3947.303
929,3949.862
930,3952.419
931,3954.974
932,3957.527
933,3960.078
934,3962.627
935,3965.175
936,3967.72
937,3970.264
938,3972.806
939,3975.346
940,3977.884
941,3980.42
942,3982.954
943,3985.487
944,3988.017
945,3990.546
946,3993.073
947,3995.598
948,3998.121
949,4000.642
